t,z(t),v(t),F(t) (added)
0.02,-3.16,0,316
0.04,-3.158736,0.0632,315.8736
0.06,-3.156209,0.1263747,315.6208
0.08,-3.152419,0.1894989,315.2419
0.09999999,-3.147368,0.2525473,314.7368
0.12,-3.141058,0.3154946,314.1058
0.14,-3.133492,0.3783158,313.3492
0.16,-3.124672,0.4409856,312.4672
0.18,-3.114602,0.5034791,311.4602
0.2,-3.103287,0.5657711,310.3287
0.22,-3.09073,0.6278368,309.073
0.24,-3.076937,0.6896514,307.6937
0.26,-3.061913,0.7511902,306.1913
0.28,-3.045665,0.8124285,304.5665
0.3,-3.028198,0.8733417,302.8198
0.32,-3.00952,0.9339057,300.952
0.34,-2.989638,0.9940961,298.9638
0.36,-2.96856,1.053889,296.856
0.38,-2.946295,1.11326,294.6295
0.4,-2.922851,1.172186,292.2851
0.42,-2.898238,1.230643,289.8238
0.4400001,-2.872466,1.288608,287.2466
0.4600001,-2.845545,1.346057,284.5545
0.4800001,-2.817486,1.402968,281.7486
0.5000001,-2.7883,1.459318,278.83
0.52,-2.757998,1.515084,275.7998
0.54,-2.726593,1.570244,272.6593
0.56,-2.694098,1.624775,269.4098
0.58,-2.660524,1.678657,266.0524
0.6,-2.625887,1.731868,262.5887
0.6199999,-2.590199,1.784386,259.0199
0.6399999,-2.553475,1.83619,255.3475
0.6599999,-2.51573,1.887259,251.573
0.6799999,-2.476979,1.937574,247.6979
0.6999999,-2.437237,1.987113,243.7236
0.7199998,-2.396519,2.035858,239.6519
0.7399998,-2.354844,2.083788,235.4844
0.7599998,-2.312226,2.130885,231.2226
0.7799998,-2.268683,2.17713,226.8683
0.7999998,-2.224233,2.222504,222.4233
0.8199998,-2.178893,2.266988,217.8893
0.8399997,-2.132682,2.310566,213.2682
0.8599997,-2.085618,2.35322,208.5618
0.8799997,-2.037719,2.394932,203.7719
0.8999997,-1.989006,2.435686,198.9006
0.9199997,-1.939496,2.475466,193.9496
0.9399996,-1.889211,2.514256,188.9211
0.9599996,-1.83817,2.552041,183.817
0.9799996,-1.786394,2.588804,178.6394
0.9999996,-1.733904,2.624532,173.3904
1.02,-1.68072,2.65921,168.072
1.04,-1.626863,2.692824,162.6863
1.06,-1.572356,2.725362,157.2356
1.08,-1.51722,2.756809,151.722
1.1,-1.461477,2.787153,146.1477
1.12,-1.405149,2.816383,140.5149
1.14,-1.348259,2.844486,134.8259
1.159999,-1.29083,2.871451,129.083
1.179999,-1.232885,2.897268,123.2885
1.199999,-1.174446,2.921925,117.4446
1.219999,-1.115538,2.945414,111.5538
1.239999,-1.056183,2.967725,105.6183
1.259999,-0.9964064,2.988849,99.64064
1.279999,-0.9362308,3.008777,93.62309
1.299999,-0.8756808,3.027502,87.56808
1.319999,-0.8147805,3.045015,81.47805
1.339999,-0.7535543,3.061311,75.35543
1.359999,-0.6920267,3.076382,69.20267
1.379999,-0.6302222,3.090222,63.02222
1.399999,-0.5681657,3.102827,56.81657
1.419999,-0.5058818,3.11419,50.58818
1.439999,-0.4433957,3.124308,44.33957
1.459999,-0.3807322,3.133176,38.07322
1.479999,-0.3179164,3.14079,31.79164
1.499999,-0.2549734,3.147149,25.49734
1.519999,-0.1919284,3.152248,19.19284
1.539999,-0.1288067,3.156087,12.88067
1.559999,-0.06563345,3.158663,6.563345
1.579999,-0.002433941,3.159976,0.2433941
1.599999,0.06076654,3.160024,-6.076654
1.619999,0.1239427,3.158809,-12.39427
1.639999,0.1870693,3.15633,-18.70693
1.659999,0.2501211,3.152589,-25.01211
1.679999,0.3130728,3.147586,-31.30728
1.699999,0.3758993,3.141325,-37.58993
1.719999,0.4385754,3.133807,-43.85754
1.739999,0.5010761,3.125035,-50.10761
1.759999,0.5633764,3.115014,-56.33764
1.779999,0.6254513,3.103746,-62.54513
1.799999,0.687276,3.091237,-68.7276
1.819999,0.7488258,3.077492,-74.88258
1.839999,0.8100762,3.062515,-81.00761
1.859999,0.8710024,3.046314,-87.10024
1.879999,0.9315803,3.028894,-93.15803
1.899999,0.9917855,3.010262,-99.17855
1.919999,1.051594,2.990426,-105.1594
1.939999,1.110982,2.969394,-111.0982
1.959999,1.169925,2.947175,-116.9925
1.979999,1.228401,2.923776,-122.8401
1.999999,1.286385,2.899208,-128.6385
2.019999,1.343855,2.873481,-134.3855
2.039999,1.400787,2.846603,-140.0787
2.059999,1.457159,2.818588,-145.7159
2.079999,1.512947,2.789444,-151.2947
2.099999,1.568131,2.759186,-156.8131
2.119999,1.622688,2.727823,-162.2688
2.139999,1.676595,2.695369,-167.6595
2.159999,1.729832,2.661837,-172.9832
2.179999,1.782377,2.627241,-178.2377
2.199999,1.834208,2.591593,-183.4209
2.219999,1.885307,2.554909,-188.5307
2.239999,1.935651,2.517203,-193.5651
2.259999,1.985221,2.47849,-198.5221
2.279999,2.033996,2.438785,-203.3996
2.299999,2.081959,2.398105,-208.1958
2.319999,2.129088,2.356466,-212.9088
2.339998,2.175366,2.313884,-217.5366
2.359998,2.220773,2.270377,-222.0773
2.379998,2.265292,2.225962,-226.5292
2.399998,2.308906,2.180656,-230.8906
2.419998,2.351595,2.134478,-235.1595
2.439998,2.393344,2.087446,-239.3344
2.459998,2.434136,2.039579,-243.4136
2.479998,2.473954,1.990896,-247.3954
2.499998,2.512782,1.941417,-251.2782
2.519998,2.550605,1.891162,-255.0605
2.539998,2.587408,1.84015,-258.7408
2.559998,2.623176,1.788401,-262.3176
2.579998,2.657895,1.735938,-265.7895
2.599998,2.691551,1.68278,-269.1551
2.619998,2.72413,1.628949,-272.413
2.639998,2.755619,1.574466,-275.5619
2.659998,2.786006,1.519354,-278.6006
2.679998,2.815279,1.463634,-281.5279
2.699998,2.843426,1.407328,-284.3426
2.719998,2.870435,1.35046,-287.0435
2.739998,2.896296,1.293051,-289.6296
2.759998,2.920998,1.235125,-292.0998
2.779998,2.944532,1.176705,-294.4532
2.799998,2.966889,1.117815,-296.6889
2.819998,2.988058,1.058477,-298.8058
2.839998,3.008032,0.9987156,-300.8032
2.859998,3.026803,0.938555,-302.6804
2.879998,3.044364,0.8780189,-304.4364
2.899998,3.060707,0.8171316,-306.0706
2.919998,3.075825,0.7559175,-307.5825
2.939998,3.089713,0.694401,-308.9713
2.959998,3.102365,0.6326067,-310.2365
2.979998,3.113776,0.5705594,-311.3777
2.999998,3.123942,0.5082839,-312.3942
3.019998,3.132858,0.4458051,-313.2858
3.039998,3.140521,0.3831479,-314.0521
3.059998,3.146928,0.3203375,-314.6928
3.079998,3.152076,0.2573989,-315.2076
3.099998,3.155963,0.1943574,-315.5963
3.119998,3.158588,0.1312381,-315.8588
3.139998,3.159949,0.06806637,-315.9949
3.159998,3.160047,0.004867391,-316.0047
3.179998,3.15888,-0.05833354,-315.888
3.199998,3.15645,-0.1215111,-315.645
3.219998,3.152757,-0.1846401,-315.2757
3.239998,3.147803,-0.2476953,-314.7803
3.259998,3.14159,-0.3106513,-314.159
3.279998,3.13412,-0.3734831,-313.412
3.299998,3.125397,-0.4361655,-312.5397
3.319998,3.115424,-0.4986734,-311.5424
3.339998,3.104204,-0.5609819,-310.4204
3.359998,3.091743,-0.623066,-309.1743
3.379997,3.078044,-0.6849009,-307.8044
3.399997,3.063115,-0.7464617,-306.3115
3.419997,3.046961,-0.8077241,-304.696
3.439997,3.029587,-0.8686633,-302.9587
3.459997,3.011002,-0.929255,-301.1002
3.479997,2.991213,-0.9894751,-299.1212
3.499997,2.970227,-1.049299,-297.0226
3.519997,2.948052,-1.108704,-294.8052
3.539997,2.924699,-1.167665,-292.4699
3.559997,2.900176,-1.226159,-290.0176
3.579997,2.874493,-1.284162,-287.4493
3.599997,2.84766,-1.341652,-284.766
3.619997,2.819687,-1.398605,-281.9688
3.639997,2.790587,-1.454999,-279.0587
3.659997,2.760371,-1.510811,-276.0371
3.679997,2.729051,-1.566018,-272.9051
3.699997,2.696639,-1.620599,-269.6639
3.719997,2.663148,-1.674532,-266.3148
3.739997,2.628592,-1.727795,-262.8592
3.759997,2.592985,-1.780367,-259.2985
3.779997,2.55634,-1.832227,-255.634
3.799997,2.518673,-1.883354,-251.8673
3.819997,2.479999,-1.933727,-247.9999
3.839997,2.440332,-1.983327,-244.0332
3.859997,2.399689,-2.032134,-239.9689
3.879997,2.358087,-2.080127,-235.8087
3.899997,2.315541,-2.127289,-231.5541
3.919997,2.272069,-2.1736,-227.2069
3.939997,2.227688,-2.219042,-222.7688
3.959997,2.182416,-2.263595,-218.2416
3.979997,2.136271,-2.307244,-213.6271
3.999997,2.089272,-2.349969,-208.9272
4.019997,2.041437,-2.391754,-204.1437
4.039997,1.992785,-2.432583,-199.2785
4.059997,1.943336,-2.472439,-194.3336
4.079997,1.89311,-2.511306,-189.311
4.099997,1.842127,-2.549168,-184.2127
4.119997,1.790407,-2.58601,-179.0407
4.139997,1.73797,-2.621819,-173.797
4.159997,1.684839,-2.656578,-168.4839
4.179997,1.631033,-2.690275,-163.1033
4.199997,1.576575,-2.722895,-157.6575
4.219997,1.521487,-2.754427,-152.1487
4.239997,1.46579,-2.784857,-146.579
4.259997,1.409506,-2.814173,-140.9506
4.279997,1.352659,-2.842363,-135.2659
4.299997,1.295271,-2.869416,-129.5271
4.319997,1.237364,-2.895321,-123.7364
4.339997,1.178963,-2.920069,-117.8963
4.359997,1.12009,-2.943648,-112.009
4.379997,1.060769,-2.96605,-106.0769
4.399997,1.001024,-2.987265,-100.1024
4.419997,0.9408779,-3.007286,-94.08779
4.439997,0.8803558,-3.026103,-88.03558
4.459997,0.8194816,-3.04371,-81.94816
4.479997,0.7582796,-3.0601,-75.82796
4.499997,0.6967743,-3.075266,-69.67743
4.519997,0.6349903,-3.089201,-63.49903
4.539997,0.5729523,-3.101901,-57.29523
4.559997,0.5106851,-3.11336,-51.06851
4.579997,0.4482136,-3.123574,-44.82136
4.599997,0.3855628,-3.132538,-38.55628
4.619997,0.3227578,-3.140249,-32.27578
4.639997,0.2598237,-3.146704,-25.98237
4.659997,0.1967857,-3.151901,-19.67857
4.679996,0.133669,-3.155837,-13.3669
4.699996,0.07049879,-3.15851,-7.049879
4.719996,0.007300384,-3.15992,-0.7300384
4.739996,-0.05590094,-3.160066,5.590094
4.759996,-0.1190799,-3.158948,11.90799
4.779996,-0.1822112,-3.156567,18.22112
4.799996,-0.2452697,-3.152922,24.52697
4.819996,-0.30823,-3.148017,30.823
4.839996,-0.371067,-3.141852,37.1067
4.859996,-0.4337557,-3.134431,43.37557
4.879996,-0.4962708,-3.125756,49.62708
4.899996,-0.5585874,-3.115831,55.85874
4.919996,-0.6206806,-3.104659,62.06806
4.939996,-0.6825255,-3.092245,68.25255
4.959996,-0.7440974,-3.078595,74.40974
4.979996,-0.8053716,-3.063713,80.53716
4.999996,-0.8663238,-3.047606,86.63238
5.019996,-0.9269294,-3.030279,92.69293
5.039996,-0.9871641,-3.011741,98.71642
5.059996,-1.047004,-2.991997,104.7004
5.079996,-1.106425,-2.971057,110.6425
5.099996,-1.165404,-2.948929,116.5404
5.119996,-1.223916,-2.925621,122.3916
5.139996,-1.281939,-2.901142,128.1939
5.159996,-1.339449,-2.875504,133.9449
5.179996,-1.396423,-2.848715,139.6423
5.199996,-1.452839,-2.820786,145.2839
5.219996,-1.508674,-2.791729,150.8674
5.239996,-1.563905,-2.761556,156.3905
5.259996,-1.61851,-2.730278,161.851
5.279996,-1.672469,-2.697908,167.2469
5.299996,-1.725758,-2.664458,172.5758
5.319996,-1.778357,-2.629943,177.8357
5.339996,-1.830244,-2.594376,183.0244
5.359996,-1.8814,-2.557771,188.14
5.379996,-1.931802,-2.520143,193.1802
5.399996,-1.981433,-2.481507,198.1432
5.419996,-2.03027,-2.441879,203.027
5.439996,-2.078295,-2.401273,207.8295
5.459996,-2.12549,-2.359707,212.549
5.479996,-2.171834,-2.317198,217.1834
5.499996,-2.217309,-2.273761,221.7309
5.519996,-2.261897,-2.229415,226.1897
5.539996,-2.305581,-2.184177,230.5581
5.559996,-2.348342,-2.138065,234.8342
5.579996,-2.390164,-2.091098,239.0164
5.599996,-2.43103,-2.043295,243.103
5.619996,-2.470923,-1.994674,247.0923
5.639996,-2.509829,-1.945256,250.9828
5.659996,-2.54773,-1.895059,254.773
5.679996,-2.584612,-1.844105,258.4612
5.699996,-2.62046,-1.792413,262.046
5.719995,-2.65526,-1.740003,265.526
5.739995,-2.688998,-1.686898,268.8998
5.759995,-2.72166,-1.633118,272.166
5.779995,-2.753234,-1.578685,275.3234
5.799995,-2.783707,-1.52362,278.3707
5.819995,-2.813066,-1.467946,281.3065
5.839995,-2.841299,-1.411685,284.1299
5.859995,-2.868397,-1.354859,286.8397
5.879995,-2.894346,-1.297491,289.4346
5.899995,-2.919138,-1.239604,291.9138
5.919995,-2.942763,-1.181221,294.2763
5.939995,-2.96521,-1.122366,296.521
5.959995,-2.986471,-1.063062,298.6472
5.979995,-3.006538,-1.003332,300.6538
5.999995,-3.025402,-0.9432015,302.5402
6.019995,-3.043056,-0.8826935,304.3056
6.039995,-3.059493,-0.8218324,305.9492
6.059995,-3.074705,-0.7606425,307.4706
6.079995,-3.088688,-0.6991484,308.8688
6.099995,-3.101436,-0.6373746,310.1436
6.119995,-3.112943,-0.5753459,311.2943
6.139995,-3.123205,-0.5130871,312.3205
6.159995,-3.132217,-0.450623,313.2217
6.179995,-3.139977,-0.3879787,313.9977
6.199995,-3.14648,-0.3251791,314.648
6.219995,-3.151725,-0.2622495,315.1725
6.239995,-3.15571,-0.199215,315.571
6.259995,-3.158432,-0.1361008,315.8431
6.279995,-3.15989,-0.07293221,315.989
6.299995,-3.160085,-0.009734406,316.0085
6.319995,-3.159016,0.05346729,315.9016
6.339995,-3.156683,0.1166476,315.6683
6.359995,-3.153087,0.1797812,315.3087
6.379995,-3.14823,0.242843,314.823
6.399995,-3.142114,0.3058076,314.2114
6.419995,-3.134741,0.3686499,313.4741
6.439995,-3.126114,0.4313447,312.6114
6.459995,-3.116237,0.493867,311.6237
6.479995,-3.105113,0.5561917,310.5113
6.499995,-3.092747,0.6182939,309.2747
6.519995,-3.079144,0.6801489,307.9144
6.539995,-3.064309,0.7417318,306.4309
6.559995,-3.048249,0.803018,304.8249
6.579995,-3.030969,0.863983,303.0969
6.599995,-3.012477,0.9246023,301.2477
6.619995,-2.99278,0.9848519,299.278
6.639995,-2.971886,1.044708,297.1886
6.659995,-2.949804,1.104145,294.9803
6.679995,-2.926541,1.163141,292.6541
6.699995,-2.902107,1.221672,290.2108
6.719995,-2.876513,1.279714,287.6513
6.739995,-2.849768,1.337245,284.9768
6.759995,-2.821884,1.39424,282.1884
6.779994,-2.79287,1.450678,279.287
6.799994,-2.762739,1.506535,276.274
6.819994,-2.731504,1.56179,273.1504
6.839994,-2.699175,1.61642,269.9175
6.859994,-2.665767,1.670403,266.5767
6.879994,-2.631293,1.723719,263.1293
6.899994,-2.595766,1.776345,259.5766
6.919994,-2.559201,1.82826,255.9201
6.939994,-2.521612,1.879444,252.1612
6.959994,-2.483014,1.929876,248.3014
6.979994,-2.443423,1.979536,244.3423
6.999994,-2.402855,2.028405,240.2855
7.019994,-2.361326,2.076462,236.1326
7.039994,-2.318852,2.123688,231.8852
7.059994,-2.275451,2.170065,227.5451
7.079994,-2.231139,2.215575,223.1139
7.099994,-2.185935,2.260197,218.5936
7.119994,-2.139857,2.303916,213.9857
7.139994,-2.092923,2.346713,209.2923
7.159994,-2.045151,2.388572,204.5152
7.179994,-1.996562,2.429475,199.6562
7.199994,-1.947174,2.469406,194.7174
7.219994,-1.897007,2.50835,189.7007
7.239994,-1.846081,2.54629,184.6081
7.259994,-1.794417,2.583211,179.4417
7.279994,-1.742035,2.6191,174.2035
7.299994,-1.688956,2.65394,168.8956
7.319994,-1.635202,2.68772,163.5202
7.339994,-1.580793,2.720424,158.0793
7.359994,-1.525752,2.75204,152.5752
7.379994,-1.470101,2.782555,147.0101
7.399994,-1.413862,2.811957,141.3862
7.419994,-1.357058,2.840234,135.7057
7.439994,-1.29971,2.867375,129.971
7.459994,-1.241843,2.893369,124.1843
7.479994,-1.183478,2.918206,118.3478
7.499994,-1.124641,2.941875,112.4641
7.519994,-1.065354,2.964368,106.5354
7.539994,-1.00564,2.985675,100.564
7.559994,-0.9455244,3.005788,94.55244
7.579994,-0.8850304,3.024698,88.50304
7.599994,-0.8241825,3.042399,82.41824
7.619994,-0.7630048,3.058883,76.30048
7.639994,-0.7015219,3.074143,70.15219
7.659994,-0.6397585,3.088173,63.97585
7.679994,-0.5777391,3.100968,57.77391
7.699994,-0.5154887,3.112523,51.54887
7.719994,-0.453032,3.122833,45.3032
7.739994,-0.3903942,3.131893,39.03941
7.759994,-0.3276001,3.139701,32.76001
7.779994,-0.2646751,3.146253,26.4675
7.799994,-0.2016441,3.151547,20.16441
7.819993,-0.1385325,3.15558,13.85325
7.839993,-0.07536551,3.15835,7.536551
7.859993,-0.01216836,3.159858,1.216836
7.879993,0.05103366,3.160101,-5.103366
7.899993,0.1142153,3.159081,-11.42153
7.919993,0.1773512,3.156796,-17.73512
7.939993,0.2404162,3.153249,-24.04162
7.959993,0.303385,3.148441,-30.3385
7.979993,0.3662325,3.142373,-36.62325
7.999993,0.4289334,3.135048,-42.89334
8.019994,0.4914628,3.12647,-49.14628
8.039994,0.5537956,3.11664,-55.37956
8.059995,0.6159068,3.105564,-61.59068
8.079995,0.6777717,3.093246,-67.77718
8.099996,0.7393656,3.079691,-73.93655
8.119996,0.8006637,3.064903,-80.06637
8.139997,0.8616415,3.04889,-86.16415
8.159997,0.9222746,3.031657,-92.22746
8.179997,0.9825388,3.013212,-98.25388
8.199998,1.04241,2.993561,-104.241
8.219998,1.101864,2.972713,-110.1864
8.239999,1.160878,2.950675,-116.0878
8.259999,1.219427,2.927458,-121.9427
8.28,1.277488,2.903069,-127.7488
8.3,1.335039,2.87752,-133.5039
8.320001,1.392055,2.850819,-139.2055
8.340001,1.448515,2.822978,-144.8515
8.360002,1.504395,2.794008,-150.4395
8.380002,1.559673,2.76392,-155.9673
8.400002,1.614328,2.732726,-161.4328
8.420003,1.668337,2.70044,-166.8336
8.440003,1.721678,2.667073,-172.1678
8.460004,1.774331,2.632639,-177.4331
8.480004,1.826274,2.597153,-182.6274
8.500005,1.877486,2.560627,-187.7486
8.520005,1.927948,2.523077,-192.7948
8.540006,1.977638,2.484519,-197.7638
8.560006,2.026538,2.444966,-202.6538
8.580007,2.074626,2.404435,-207.4626
8.600007,2.121885,2.362943,-212.1885
8.620008,2.168295,2.320505,-216.8295
8.640008,2.213838,2.277139,-221.3838
8.660008,2.258495,2.232862,-225.8495
8.680009,2.302249,2.187692,-230.2249
8.700009,2.345082,2.141647,-234.5082
8.72001,2.386977,2.094746,-238.6977
8.74001,2.427917,2.047006,-242.7917
8.760011,2.467886,1.998448,-246.7886
8.780011,2.506868,1.94909,-250.6868
8.800012,2.544847,1.898953,-254.4847
8.820012,2.581808,1.848056,-258.1808
8.840013,2.617737,1.79642,-261.7737
8.860013,2.652618,1.744065,-265.2618
8.880013,2.686438,1.691013,-268.6438
8.900014,2.719184,1.637284,-271.9184
8.920014,2.750842,1.5829,-275.0842
8.940015,2.781399,1.527883,-278.1399
8.960015,2.810844,1.472255,-281.0844
8.980016,2.839165,1.416039,-283.9165
9.000016,2.86635,1.359255,-286.635
9.020017,2.892389,1.301928,-289.2389
9.040017,2.917271,1.244081,-291.7271
9.060018,2.940985,1.185735,-294.0985
9.080018,2.963524,1.126915,-296.3524
9.100019,2.984877,1.067645,-298.4877
9.120019,3.005036,1.007947,-300.5036
9.140019,3.023993,0.9478467,-302.3993
9.16002,3.04174,0.8873668,-304.174
9.18002,3.058271,0.826532,-305.8271
9.200021,3.073578,0.7653666,-307.3578
9.220021,3.087656,0.703895,-308.7656
9.240022,3.100499,0.6421419,-310.0499
9.260022,3.112102,0.5801319,-311.2102
9.280023,3.12246,0.5178899,-312.246
9.300023,3.131568,0.4554407,-313.1568
9.320024,3.139425,0.3928094,-313.9424
9.340024,3.146025,0.3300209,-314.6025
9.360024,3.151367,0.2671004,-315.1367
9.380025,3.155448,0.2040731,-315.5448
9.400025,3.158268,0.1409641,-315.8268
9.420026,3.159824,0.07779875,-315.9824
9.440026,3.160116,0.01460228,-316.0116
9.460027,3.159144,-0.04860003,-315.9144
9.480027,3.156908,-0.1117829,-315.6908
9.500028,3.15341,-0.1749211,-315.341
9.520028,3.14865,-0.2379893,-314.865
9.540029,3.142631,-0.3009623,-314.2631
9.560029,3.135354,-0.3638149,-313.5354
9.580029,3.126824,-0.426522,-312.6824
9.60003,3.117043,-0.4890584,-311.7043
9.62003,3.106015,-0.5513993,-310.6015
9.640031,3.093744,-0.6135196,-309.3744
9.660031,3.080236,-0.6753945,-308.0237
9.680032,3.065496,-0.7369992,-306.5497
9.700032,3.04953,-0.7983091,-304.953
9.720033,3.032344,-0.8592998,-303.2344
9.740033,3.013945,-0.9199467,-301.3945
9.760034,2.994341,-0.9802256,-299.4341
9.780034,2.973539,-1.040112,-297.3539
9.800035,2.951547,-1.099583,-295.1547
9.820035,2.928375,-1.158614,-292.8375
9.840035,2.904031,-1.217182,-290.4031
9.860036,2.878525,-1.275262,-287.8525
9.880036,2.851869,-1.332833,-285.1869
9.900037,2.824071,-1.38987,-282.4071
9.920037,2.795144,-1.446351,-279.5144
9.940038,2.765099,-1.502254,-276.5099
9.960038,2.733948,-1.557556,-273.3948
9.980039,2.701704,-1.612235,-270.1703
10.00004,2.668378,-1.666269,-266.8378
10.02004,2.633985,-1.719637,-263.3985
10.04004,2.598539,-1.772316,-259.8539
10.06004,2.562053,-1.824287,-256.2053
10.08004,2.524543,-1.875528,-252.4543
10.10004,2.486022,-1.926019,-248.6022
10.12004,2.446507,-1.975739,-244.6507
10.14004,2.406014,-2.024669,-240.6014
10.16004,2.364558,-2.07279,-236.4558
10.18004,2.322157,-2.120081,-232.2157
10.20004,2.278826,-2.166524,-227.8826
10.22004,2.234584,-2.212101,-223.4584
10.24004,2.189449,-2.256793,-218.9449
10.26005,2.143437,-2.300581,-214.3437
10.28005,2.096568,-2.34345,-209.6568
10.30005,2.04886,-2.385382,-204.886
10.32005,2.000333,-2.426359,-200.0333
10.34005,1.951006,-2.466366,-195.1006
10.36005,1.900898,-2.505386,-190.0898
10.38005,1.85003,-2.543404,-185.003
10.40005,1.798422,-2.580404,-179.8422
10.42005,1.746094,-2.616373,-174.6095
10.44005,1.693069,-2.651295,-169.3069
10.46005,1.639366,-2.685156,-163.9366
10.48005,1.585007,-2.717943,-158.5007
10.50005,1.530014,-2.749644,-153.0014
10.52005,1.474409,-2.780244,-147.4409
10.54005,1.418214,-2.809732,-141.8214
10.56005,1.361452,-2.838096,-136.1452
10.58005,1.304146,-2.865325,-130.4146
10.60005,1.246318,-2.891408,-124.6318
10.62005,1.187991,-2.916335,-118.7991
10.64005,1.129189,-2.940094,-112.9189
10.66005,1.069935,-2.962678,-106.9935
10.68005,1.010254,-2.984077,-101.0254
10.70006,0.9501683,-3.004282,-95.01682
10.72006,0.8897026,-3.023285,-88.97025
